timestamp,open,high,low,close,volume
2024-02-07 16:00:00,0.0011,0.00318,0.0011,0.002927,28263689.0
2024-02-07 20:00:00,0.002927,0.002977,0.002707,0.002817,9992609.0
2024-02-08 00:00:00,0.002817,0.002876,0.002775,0.002835,21044133.0
2024-02-08 04:00:00,0.002835,0.00289,0.002572,0.002824,14649461.0
2024-02-08 08:00:00,0.002824,0.002845,0.002775,0.002825,14246670.0
2024-02-08 12:00:00,0.002825,0.002868,0.00282,0.002854,8627306.0
2024-02-08 16:00:00,0.002854,0.002868,0.002801,0.00281,9629514.0
2024-02-08 20:00:00,0.00281,0.002822,0.0028,0.002805,7176877.0
2024-02-09 00:00:00,0.002805,0.002822,0.002775,0.002816,8578937.0
2024-02-09 04:00:00,0.002816,0.002822,0.002799,0.002809,9435183.0
2024-02-09 08:00:00,0.002809,0.002913,0.00273,0.002891,5954099.0
2024-02-09 12:00:00,0.002891,0.002911,0.002842,0.002861,5565246.0
2024-02-09 16:00:00,0.002861,0.002867,0.002821,0.002846,10125368.0
2024-02-09 20:00:00,0.002846,0.002867,0.00282,0.002835,5730666.0
2024-02-10 00:00:00,0.002835,0.002867,0.00283,0.002861,9628862.0
2024-02-10 04:00:00,0.002861,0.003,0.002844,0.002867,9639472.0
2024-02-10 08:00:00,0.002867,0.003121,0.002843,0.002843,4763878.0
2024-02-10 12:00:00,0.002843,0.002867,0.002832,0.002832,11687845.0
2024-02-10 16:00:00,0.002832,0.00289,0.002824,0.002889,4313604.0
2024-02-10 20:00:00,0.002889,0.002889,0.002866,0.002889,9728086.0
2024-02-11 00:00:00,0.002889,0.003071,0.002865,0.002893,5319617.0
2024-02-11 04:00:00,0.002893,0.002954,0.002888,0.002943,6541218.0
2024-02-11 08:00:00,0.002943,0.00318,0.002933,0.003084,5417801.0
2024-02-11 12:00:00,0.003084,0.003084,0.002932,0.002937,11897750.0
2024-02-11 16:00:00,0.002947,0.00297,0.002934,0.002958,11111283.0
2024-02-11 20:00:00,0.002958,0.002972,0.002933,0.002957,9055409.0
2024-02-12 00:00:00,0.002957,0.002978,0.002933,0.002958,9083797.0
2024-02-12 04:00:00,0.002958,0.002966,0.002867,0.002951,6989819.0
2024-02-12 08:00:00,0.002951,0.002957,0.002933,0.002952,8352977.0
2024-02-12 12:00:00,0.002952,0.002999,0.002933,0.002982,7314667.0
2024-02-12 16:00:00,0.002982,0.002998,0.002956,0.002976,7015443.0
2024-02-12 20:00:00,0.002976,0.003,0.002956,0.002995,11431921.0
2024-02-13 00:00:00,0.002995,0.003025,0.002985,0.003018,6620672.0
2024-02-13 04:00:00,0.003018,0.003248,0.003002,0.003044,8144405.0
2024-02-13 08:00:00,0.003044,0.00307,0.003023,0.00307,6778363.0
2024-02-13 12:00:00,0.00307,0.00307,0.002799,0.003041,8427626.0
2024-02-13 16:00:00,0.003041,0.00309,0.003041,0.003089,9928615.0
2024-02-13 20:00:00,0.003089,0.003089,0.003067,0.003089,7972856.0
2024-02-14 00:00:00,0.003089,0.00309,0.002932,0.002938,5264795.0
2024-02-14 04:00:00,0.002938,0.00326,0.002934,0.003092,8189606.0
2024-02-14 08:00:00,0.003092,0.003112,0.003074,0.003078,7637167.0
2024-02-14 12:00:00,0.003078,0.00309,0.003048,0.003086,4764595.0
2024-02-14 16:00:00,0.003086,0.003112,0.003069,0.003102,8692887.0
2024-02-14 20:00:00,0.003102,0.003112,0.003068,0.003088,5543319.0
2024-02-15 00:00:00,0.003088,0.003089,0.003068,0.003088,10254803.0
2024-02-15 04:00:00,0.003088,0.003112,0.003068,0.003112,8318601.0
2024-02-15 08:00:00,0.003112,0.003112,0.003087,0.003103,9257842.0
2024-02-15 12:00:00,0.003103,0.003157,0.003087,0.003138,8185902.0
2024-02-15 16:00:00,0.003138,0.003157,0.003132,0.003157,6627470.0
2024-02-15 20:00:00,0.003157,0.003157,0.003132,0.003146,10184100.0
2024-02-16 00:00:00,0.003146,0.003157,0.003132,0.003134,6417105.0
2024-02-16 04:00:00,0.003134,0.003158,0.003132,0.003152,10064974.0
2024-02-16 08:00:00,0.003152,0.003157,0.003132,0.003132,6790916.0
2024-02-16 12:00:00,0.003132,0.003157,0.003068,0.003089,5842315.0
2024-02-16 16:00:00,0.003089,0.003089,0.002997,0.003025,9763090.0
2024-02-16 20:00:00,0.003025,0.003069,0.003,0.003066,7314086.0
2024-02-17 00:00:00,0.003066,0.003089,0.003048,0.003085,6256673.0
2024-02-17 04:00:00,0.003085,0.003108,0.003072,0.003089,7260616.0
2024-02-17 08:00:00,0.003089,0.003129,0.003087,0.003115,9286418.0
2024-02-17 12:00:00,0.003115,0.003299,0.003026,0.003114,4975340.0
2024-02-17 16:00:00,0.003114,0.003134,0.00311,0.00311,8527382.0
2024-02-17 20:00:00,0.00311,0.003134,0.00311,0.003113,6954684.0
2024-02-18 00:00:00,0.003113,0.003134,0.00311,0.003115,9802359.0
2024-02-18 04:00:00,0.003115,0.003134,0.00311,0.003113,10294121.0
2024-02-18 08:00:00,0.003113,0.003134,0.003087,0.003118,3189281.0
2024-02-18 12:00:00,0.003118,0.003171,0.003086,0.003155,7008036.0
2024-02-18 16:00:00,0.003155,0.003411,0.003131,0.003238,4807832.0
2024-02-18 20:00:00,0.003238,0.003247,0.003222,0.003226,7239436.0
2024-02-19 00:00:00,0.003226,0.003247,0.003222,0.003242,7333022.0
2024-02-19 04:00:00,0.003242,0.003247,0.003222,0.00324,8112664.0
2024-02-19 08:00:00,0.00324,0.003247,0.003222,0.003241,8419818.0
2024-02-19 12:00:00,0.003241,0.003247,0.003222,0.003242,8887727.0
2024-02-19 16:00:00,0.003242,0.003247,0.003222,0.003222,7303163.0
2024-02-19 20:00:00,0.003222,0.003248,0.003222,0.003246,4090240.0
2024-02-20 00:00:00,0.003246,0.00329,0.003225,0.003263,7509561.0
2024-02-20 04:00:00,0.003263,0.003269,0.003245,0.003267,6787834.0
2024-02-20 08:00:00,0.003267,0.003269,0.003226,0.003263,6443768.0
2024-02-20 12:00:00,0.003263,0.003269,0.003244,0.003248,6550390.0
2024-02-20 16:00:00,0.003248,0.003292,0.003246,0.003284,7609455.0
2024-02-20 20:00:00,0.003284,0.003292,0.003208,0.003222,9821060.0
2024-02-21 00:00:00,0.003222,0.003239,0.00282,0.002861,7094627.0
2024-02-21 04:00:00,0.002861,0.003224,0.002777,0.003207,6689769.0
2024-02-21 08:00:00,0.003207,0.003224,0.0032,0.003209,7775213.0
2024-02-21 12:00:00,0.003209,0.003224,0.0032,0.003207,7660718.0
2024-02-21 16:00:00,0.003207,0.003224,0.0032,0.003214,7404386.0
2024-02-21 20:00:00,0.003214,0.003224,0.003206,0.003221,10920075.0
2024-02-22 00:00:00,0.003221,0.003224,0.0032,0.003215,7504873.0
2024-02-22 04:00:00,0.003215,0.003224,0.0032,0.003222,8183761.0
2024-02-22 08:00:00,0.003222,0.003224,0.003178,0.003189,6526080.0
2024-02-22 12:00:00,0.003189,0.003502,0.003178,0.003202,8703750.0
2024-02-22 16:00:00,0.003202,0.003224,0.0032,0.003221,9943838.0
2024-02-22 20:00:00,0.003221,0.003314,0.003206,0.003303,5801096.0
2024-02-23 00:00:00,0.003303,0.003314,0.003268,0.003292,4833663.0
2024-02-23 04:00:00,0.003292,0.003314,0.003268,0.003313,3324018.0
2024-02-23 08:00:00,0.003313,0.003314,0.00329,0.003313,10302591.0
2024-02-23 12:00:00,0.003313,0.003495,0.003293,0.003479,3034634.0
2024-02-23 16:00:00,0.003479,0.00383,0.00347,0.003522,7372276.0
2024-02-23 20:00:00,0.003522,0.00434,0.00352,0.004004,6011908.0
2024-02-24 00:00:00,0.004004,0.004192,0.00341,0.004187,1893094.0
2024-02-24 04:00:00,0.004187,0.004368,0.004166,0.004355,3476676.0
2024-02-24 08:00:00,0.004355,0.004445,0.004144,0.004437,6065557.0
2024-02-24 12:00:00,0.004437,0.0045,0.004436,0.004494,3614603.0
2024-02-24 16:00:00,0.004494,0.004866,0.004481,0.004764,11382162.0
2024-02-24 20:00:00,0.004764,0.00485,0.004746,0.004791,7371039.0
2024-02-25 00:00:00,0.004791,0.004799,0.004721,0.004727,9018190.0
2024-02-25 04:00:00,0.004727,0.00492,0.004721,0.004914,6122502.0
2024-02-25 08:00:00,0.004914,0.004924,0.004582,0.004598,11676895.0
2024-02-25 12:00:00,0.004598,0.004987,0.004586,0.004897,4664051.0
2024-02-25 16:00:00,0.004903,0.004975,0.004852,0.004896,8124084.0
2024-02-25 20:00:00,0.004896,0.004977,0.004871,0.004974,13207133.0
2024-02-26 00:00:00,0.004974,0.004982,0.004921,0.004946,11070275.0
2024-02-26 04:00:00,0.004946,0.004949,0.004721,0.004729,9649599.0
2024-02-26 08:00:00,0.004729,0.004739,0.004526,0.004529,3701170.0
2024-02-26 12:00:00,0.004529,0.004535,0.00431,0.004315,24359292.0
2024-02-26 16:00:00,0.004315,0.00458,0.003902,0.004131,30069042.0
2024-02-26 20:00:00,0.004131,0.00474,0.004075,0.004253,25607766.0
2024-02-27 00:00:00,0.004253,0.004405,0.003852,0.004319,21935719.0
2024-02-27 04:00:00,0.004319,0.00437,0.003687,0.003738,24238573.0
2024-02-27 08:00:00,0.003738,0.0044,0.003687,0.004053,26555792.0
2024-02-27 12:00:00,0.004053,0.0045,0.00402,0.004406,15436193.0
2024-02-27 16:00:00,0.004406,0.0049,0.004148,0.004471,41741851.0
2024-02-27 20:00:00,0.004471,0.004765,0.00445,0.004723,30990950.0
2024-02-28 00:00:00,0.004723,0.00545,0.00468,0.005422,20995230.0
2024-02-28 04:00:00,0.005422,0.005505,0.004911,0.005004,16916687.0
2024-02-28 08:00:00,0.005004,0.005256,0.004497,0.004497,26996311.0
2024-02-28 12:00:00,0.004497,0.004855,0.003417,0.003674,13802778.0
2024-02-28 16:00:00,0.003674,0.004975,0.003673,0.003972,17611784.0
2024-02-28 20:00:00,0.003972,0.003971,0.003426,0.003806,20960244.0
2024-02-29 00:00:00,0.003806,0.003815,0.003797,0.003805,32304150.0
2024-02-29 04:00:00,0.003805,0.0041,0.003116,0.003192,14985884.0
2024-02-29 08:00:00,0.003192,0.003302,0.003092,0.003151,16529705.0
2024-02-29 12:00:00,0.003151,0.004159,0.002736,0.003674,16156258.0
2024-02-29 16:00:00,0.003674,0.003674,0.00365,0.003672,12180370.0
2024-02-29 20:00:00,0.003672,0.004375,0.003651,0.004024,13671763.0
2024-03-01 00:00:00,0.004024,0.004065,0.004021,0.004065,13649888.0
2024-03-01 04:00:00,0.004065,0.004512,0.004057,0.004422,11231527.0
2024-03-01 08:00:00,0.004422,0.004524,0.004396,0.004509,6095454.0
2024-03-01 12:00:00,0.004509,0.00485,0.004336,0.004729,4125680.0
2024-03-01 16:00:00,0.004729,0.00485,0.004095,0.004687,4685516.0
2024-03-01 20:00:00,0.004687,0.004875,0.004613,0.004872,4519956.0
2024-03-02 00:00:00,0.004872,0.005626,0.004799,0.005108,3490824.0
2024-03-02 04:00:00,0.005108,0.00562,0.004846,0.005001,3242482.0
2024-03-02 08:00:00,0.005001,0.005056,0.004975,0.004978,2236565.0
2024-03-02 12:00:00,0.004978,0.00503,0.004,0.004801,2807537.0
2024-03-02 16:00:00,0.004801,0.004912,0.004675,0.004903,2876993.0
2024-03-02 20:00:00,0.004903,0.005061,0.004576,0.004607,2636563.0
2024-03-03 00:00:00,0.004607,0.005102,0.004607,0.00488,2359061.0
2024-03-03 04:00:00,0.004854,0.004905,0.004852,0.00487,2347208.0
2024-03-03 08:00:00,0.00487,0.004879,0.00363,0.004397,3671532.0
2024-03-03 12:00:00,0.004397,0.004404,0.0042,0.004276,3266785.0
2024-03-03 16:00:00,0.004276,0.004292,0.004129,0.004215,2798679.0
2024-03-03 20:00:00,0.004215,0.004479,0.004175,0.004287,2843007.0
2024-03-04 00:00:00,0.004287,0.004353,0.004075,0.004077,2834806.0
2024-03-04 04:00:00,0.004077,0.00413,0.004075,0.004116,2864297.0
2024-03-04 08:00:00,0.004116,0.00428,0.00378,0.003851,3042711.0
2024-03-04 12:00:00,0.003851,0.004029,0.003851,0.004017,3001581.0
2024-03-04 16:00:00,0.004017,0.00448,0.003997,0.004416,2821483.0
2024-03-04 20:00:00,0.004416,0.004604,0.004416,0.004422,2649109.0
2024-03-05 00:00:00,0.004422,0.004429,0.00435,0.004396,2616202.0
2024-03-05 04:00:00,0.004396,0.004405,0.004376,0.004388,2661444.0
2024-03-05 08:00:00,0.004388,0.004404,0.004301,0.004317,2650175.0
2024-03-05 12:00:00,0.004317,0.005625,0.004301,0.004444,3069517.0
2024-03-05 16:00:00,0.004444,0.00448,0.0043,0.004447,2062998.0
2024-03-05 20:00:00,0.004447,0.004579,0.004445,0.004454,2532635.0
2024-03-06 00:00:00,0.004454,0.004654,0.004445,0.004636,2434753.0
2024-03-06 04:00:00,0.004636,0.004654,0.004626,0.004626,2539153.0
2024-03-06 08:00:00,0.004626,0.004654,0.00455,0.004576,2616964.0
2024-03-06 12:00:00,0.004576,0.004579,0.004551,0.004556,2388880.0
2024-03-06 16:00:00,0.004556,0.004654,0.004551,0.004627,2554105.0
2024-03-06 20:00:00,0.004627,0.005131,0.004626,0.005065,2650238.0
2024-03-07 00:00:00,0.005065,0.005085,0.004975,0.004989,2289578.0
2024-03-07 04:00:00,0.004989,0.005055,0.0048,0.004937,2161989.0
2024-03-07 08:00:00,0.004937,0.005325,0.004926,0.005276,2185849.0
2024-03-07 12:00:00,0.005276,0.005374,0.00522,0.005268,2071840.0
2024-03-07 16:00:00,0.005268,0.005273,0.00495,0.005025,1916648.0
2024-03-07 20:00:00,0.005025,0.005055,0.00495,0.005041,2049813.0
2024-03-08 00:00:00,0.005041,0.005055,0.005026,0.00503,2002280.0
2024-03-08 04:00:00,0.00503,0.005525,0.005026,0.005512,2099505.0
2024-03-08 08:00:00,0.005512,0.005644,0.005496,0.00563,1914919.0
2024-03-08 12:00:00,0.00563,0.00566,0.005394,0.005394,1397420.0
2024-03-08 16:00:00,0.005424,0.0057,0.0047,0.005395,2280583.0
2024-03-08 20:00:00,0.005395,0.005475,0.005395,0.005454,2080252.0
2024-03-09 00:00:00,0.005454,0.005499,0.005445,0.005491,1911286.0
2024-03-09 04:00:00,0.005491,0.005491,0.00493,0.005423,2146538.0
2024-03-09 08:00:00,0.005423,0.005449,0.00542,0.005428,1779331.0
2024-03-09 12:00:00,0.005428,0.005722,0.00542,0.005629,2004419.0
2024-03-09 16:00:00,0.005629,0.00564,0.005481,0.005482,2175250.0
2024-03-09 20:00:00,0.005482,0.005487,0.005194,0.005221,2107596.0
2024-03-10 00:00:00,0.005221,0.005224,0.00455,0.00455,2375898.0
2024-03-10 04:00:00,0.005034,0.005034,0.004555,0.004993,2417912.0
2024-03-10 08:00:00,0.004993,0.00525,0.004625,0.004687,2155910.0
2024-03-10 12:00:00,0.004687,0.004704,0.004651,0.004689,2182368.0
2024-03-10 16:00:00,0.004689,0.004729,0.004676,0.004705,2237343.0
2024-03-10 20:00:00,0.004705,0.004805,0.004701,0.004751,2234205.0
2024-03-11 00:00:00,0.004751,0.005,0.004726,0.004829,2212354.0
2024-03-11 04:00:00,0.004829,0.0049,0.004726,0.004741,2146085.0
2024-03-11 08:00:00,0.004741,0.005131,0.00473,0.005059,2428693.0
2024-03-11 12:00:00,0.005059,0.005425,0.005051,0.005386,2234821.0
2024-03-11 16:00:00,0.005386,0.006137,0.004975,0.005679,3429295.0
2024-03-11 20:00:00,0.005679,0.007,0.005521,0.006337,2843546.0
2024-03-12 00:00:00,0.006337,0.008279,0.006269,0.008064,2627421.0
2024-03-12 04:00:00,0.008064,0.0086,0.00726,0.008495,1800093.0
2024-03-12 08:00:00,0.008495,0.014491,0.007834,0.013483,3425875.0
2024-03-12 12:00:00,0.013483,0.015691,0.011205,0.01522,1965543.0
2024-03-12 16:00:00,0.01522,0.02,0.012236,0.013924,2540373.0
2024-03-12 20:00:00,0.013924,0.023798,0.011999,0.02298,2055617.0
2024-03-13 00:00:00,0.02298,0.03,0.020972,0.024807,1593629.0
2024-03-13 04:00:00,0.024807,0.03,0.020867,0.025246,1886331.0
2024-03-13 08:00:00,0.025246,0.026661,0.016,0.019348,857180.0
2024-03-13 12:00:00,0.019348,0.0243,0.014785,0.018418,1021370.0
2024-03-13 16:00:00,0.01838,0.018437,0.01235,0.014314,1198150.0
2024-03-13 20:00:00,0.014314,0.016267,0.010001,0.014996,957018.0
2024-03-14 00:00:00,0.014996,0.016267,0.01328,0.014416,868233.0
2024-03-14 04:00:00,0.014416,0.015891,0.01225,0.013609,889401.0
2024-03-14 08:00:00,0.013609,0.015112,0.01161,0.014208,1001318.0
2024-03-14 12:00:00,0.014208,0.014375,0.011999,0.012375,776270.0
2024-03-14 16:00:00,0.012375,0.012813,0.00856,0.0119,1189738.0
2024-03-14 20:00:00,0.0119,0.0119,0.01125,0.011576,1034844.0
2024-03-15 00:00:00,0.011576,0.01575,0.010444,0.012377,1354287.0
2024-03-15 04:00:00,0.012377,0.013,0.010995,0.012812,1530846.0
2024-03-15 08:00:00,0.012812,0.013764,0.010375,0.011943,1209156.0
2024-03-15 12:00:00,0.011943,0.013389,0.011876,0.012991,793930.0
2024-03-15 16:00:00,0.012991,0.01925,0.01,0.018076,728121.0
2024-03-15 20:00:00,0.018076,0.03,0.015235,0.025892,596596.0
2024-03-16 00:00:00,0.025892,0.03796,0.01973,0.028475,732913.0
2024-03-16 04:00:00,0.028475,0.038605,0.023715,0.024402,494359.0
2024-03-16 08:00:00,0.024402,0.031996,0.024,0.027001,499322.0
2024-03-16 12:00:00,0.027135,0.031977,0.025501,0.028069,528795.0
2024-03-16 16:00:00,0.028069,0.029554,0.024,0.024636,346194.0
2024-03-16 20:00:00,0.024636,0.032,0.024625,0.027259,364494.0
2024-03-17 00:00:00,0.027259,0.030431,0.026201,0.028674,268822.0
2024-03-17 04:00:00,0.028674,0.033025,0.0269,0.028855,299760.0
2024-03-17 08:00:00,0.028855,0.0334,0.02717,0.027571,254528.0
2024-03-17 12:00:00,0.027571,0.04,0.02717,0.04,408362.0
2024-03-17 16:00:00,0.036556,0.03999,0.027,0.02736,547581.0
2024-03-17 20:00:00,0.02736,0.028298,0.025325,0.02674,296129.0
2024-03-18 00:00:00,0.02674,0.0332,0.026038,0.028439,329018.0
2024-03-18 04:00:00,0.028439,0.029205,0.0269,0.026926,220904.0
2024-03-18 08:00:00,0.026926,0.028853,0.024,0.027145,302234.0
2024-03-18 12:00:00,0.027145,0.027978,0.023925,0.025127,246763.0
2024-03-18 16:00:00,0.025127,0.025526,0.0229,0.023636,210237.0
2024-03-18 20:00:00,0.023636,0.02973,0.022201,0.022701,277314.0
2024-03-19 00:00:00,0.022701,0.024475,0.02,0.020477,376901.0
2024-03-19 04:00:00,0.020477,0.021997,0.016329,0.017572,305824.0
2024-03-19 08:00:00,0.017572,0.021999,0.0167,0.019954,294382.0
2024-03-19 12:00:00,0.019954,0.024825,0.019181,0.022025,266371.0
2024-03-19 16:00:00,0.022025,0.022723,0.020048,0.022611,225677.0
2024-03-19 20:00:00,0.022611,0.022663,0.02,0.020989,282590.0
2024-03-20 00:00:00,0.020313,0.028329,0.02,0.02006,342553.0
2024-03-20 04:00:00,0.02006,0.021962,0.020057,0.021749,272694.0
2024-03-20 08:00:00,0.021328,0.021979,0.020413,0.021542,255139.0
2024-03-20 12:00:00,0.021542,0.02198,0.020564,0.021841,237382.0
2024-03-20 16:00:00,0.021841,0.023949,0.02,0.021626,498732.0
2024-03-20 20:00:00,0.021626,0.025975,0.020899,0.025793,266455.0
2024-03-21 00:00:00,0.025793,0.02825,0.0249,0.025099,220634.0
2024-03-21 04:00:00,0.025099,0.025588,0.023343,0.02537,278982.0
2024-03-21 08:00:00,0.02537,0.02685,0.0249,0.026426,223980.0
2024-03-21 12:00:00,0.026426,0.033,0.025774,0.031856,302197.0
2024-03-21 16:00:00,0.031856,0.031856,0.026275,0.027734,244546.0
2024-03-21 20:00:00,0.027734,0.031,0.027677,0.029719,271551.0
2024-03-22 00:00:00,0.029719,0.029979,0.029088,0.029247,162078.0
2024-03-22 04:00:00,0.029247,0.0339,0.029076,0.032592,218629.0
2024-03-22 08:00:00,0.032592,0.032592,0.02691,0.02691,178551.0
2024-03-22 12:00:00,0.02691,0.02928,0.026625,0.028427,210883.0
2024-03-22 16:00:00,0.028427,0.028439,0.026901,0.027471,193368.0
2024-03-22 20:00:00,0.027471,0.027703,0.026973,0.027058,199783.0
2024-03-23 00:00:00,0.027058,0.028398,0.027,0.027338,185097.0
2024-03-23 04:00:00,0.027338,0.028578,0.027336,0.028381,180119.0
2024-03-23 08:00:00,0.028381,0.028465,0.027687,0.027699,173243.0
2024-03-23 12:00:00,0.027699,0.028579,0.021679,0.027214,273036.0
2024-03-23 16:00:00,0.027214,0.027238,0.02575,0.026464,210103.0
2024-03-23 20:00:00,0.026464,0.030506,0.02505,0.026492,245459.0
2024-03-24 00:00:00,0.026492,0.02733,0.025226,0.02616,211925.0
2024-03-24 04:00:00,0.02616,0.03275,0.0254,0.025596,215750.0
2024-03-24 08:00:00,0.025596,0.026396,0.025226,0.025858,194731.0
2024-03-24 12:00:00,0.025858,0.025951,0.0254,0.025545,186151.0
2024-03-24 16:00:00,0.025545,0.025776,0.023998,0.024495,253435.0
2024-03-24 20:00:00,0.024495,0.02735,0.024402,0.026994,240124.0
2024-03-25 00:00:00,0.026994,0.028929,0.026801,0.028105,199211.0
2024-03-25 04:00:00,0.028105,0.0302,0.027329,0.027704,263552.0
2024-03-25 08:00:00,0.027704,0.029104,0.027675,0.028095,188657.0
2024-03-25 12:00:00,0.028095,0.03065,0.024875,0.027989,265740.0
2024-03-25 16:00:00,0.027989,0.032,0.027675,0.029498,353419.0
2024-03-25 20:00:00,0.029498,0.03345,0.029441,0.033067,238404.0
2024-03-26 00:00:00,0.033067,0.038,0.031673,0.036013,355399.0
2024-03-26 04:00:00,0.036013,0.04,0.034996,0.0371,250921.0
2024-03-26 08:00:00,0.0371,0.04,0.035175,0.036421,339236.0
2024-03-26 12:00:00,0.036421,0.037,0.034167,0.035415,266529.0
2024-03-26 16:00:00,0.035415,0.035415,0.028375,0.03362,286578.0
2024-03-26 20:00:00,0.03362,0.039999,0.03362,0.039725,182741.0
2024-03-27 00:00:00,0.039513,0.04,0.038045,0.039708,203111.0
2024-03-27 04:00:00,0.039708,0.043227,0.038547,0.040034,322791.0
2024-03-27 08:00:00,0.040435,0.047931,0.035525,0.044544,446958.0
2024-03-27 12:00:00,0.044544,0.05,0.042301,0.047691,631208.0
2024-03-27 16:00:00,0.047691,0.056204,0.045755,0.054348,358812.0
2024-03-27 20:00:00,0.054348,0.06,0.038,0.057127,621014.0
2024-03-28 00:00:00,0.057127,0.05775,0.050144,0.050588,145986.0
2024-03-28 04:00:00,0.050588,0.055999,0.04945,0.055443,142886.0
2024-03-28 08:00:00,0.055443,0.066082,0.055174,0.062165,421468.0
2024-03-28 12:00:00,0.062165,0.064134,0.053001,0.05325,292029.0
2024-03-28 16:00:00,0.053811,0.064134,0.052,0.054044,177312.0
2024-03-28 20:00:00,0.054044,0.057307,0.037915,0.050231,363920.0
2024-03-29 00:00:00,0.050012,0.054046,0.048579,0.050996,144596.0
2024-03-29 04:00:00,0.050996,0.054129,0.050626,0.051942,132752.0
2024-03-29 08:00:00,0.051942,0.059,0.048253,0.048548,748760.0
2024-03-29 12:00:00,0.048548,0.053196,0.04025,0.047021,490045.0
2024-03-29 16:00:00,0.047021,0.047548,0.040845,0.043776,256293.0
2024-03-29 20:00:00,0.043775,0.044545,0.0401,0.0405,276806.0
2024-03-30 00:00:00,0.040504,0.048299,0.04,0.043958,231440.0
2024-03-30 04:00:00,0.043958,0.048039,0.043502,0.046754,177666.0
2024-03-30 08:00:00,0.046754,0.047201,0.042032,0.043039,202460.0
2024-03-30 12:00:00,0.043039,0.047798,0.041888,0.047156,261052.0
2024-03-30 16:00:00,0.047177,0.054993,0.046975,0.053084,168233.0
2024-03-30 20:00:00,0.053084,0.062462,0.0501,0.052114,179527.0
2024-03-31 00:00:00,0.052114,0.060811,0.043501,0.0593,340990.0
2024-03-31 04:00:00,0.059269,0.064134,0.054154,0.054874,155718.0
2024-03-31 08:00:00,0.054874,0.06525,0.050665,0.057636,245463.0
2024-03-31 12:00:00,0.057636,0.065,0.04375,0.060479,223969.0
2024-03-31 16:00:00,0.060479,0.077973,0.058175,0.074736,307205.0
2024-03-31 20:00:00,0.074736,0.08,0.069359,0.074323,338099.0
2024-04-01 00:00:00,0.074323,0.09,0.055,0.075286,789472.0
2024-04-01 04:00:00,0.075286,0.086406,0.067875,0.082991,252353.0
2024-04-01 08:00:00,0.082991,0.090809,0.068254,0.074761,309825.0
2024-04-01 12:00:00,0.074761,0.077736,0.060001,0.068926,653326.0
2024-04-01 16:00:00,0.068926,0.079436,0.064514,0.073106,289313.0
2024-04-01 20:00:00,0.073106,0.077311,0.06415,0.072304,496167.0
2024-04-02 00:00:00,0.072304,0.080625,0.067908,0.077028,166027.0
2024-04-02 04:00:00,0.077028,0.079,0.071553,0.074549,99702.0
2024-04-02 08:00:00,0.074549,0.07575,0.069305,0.07204,100299.0
2024-04-02 12:00:00,0.07204,0.08025,0.068557,0.076381,99561.0
2024-04-02 16:00:00,0.076381,0.087654,0.071554,0.083032,143334.0
2024-04-02 20:00:00,0.083032,0.091,0.082042,0.08429,112671.0
2024-04-03 00:00:00,0.084536,0.098139,0.07455,0.096747,238134.0
2024-04-03 04:00:00,0.096747,0.106887,0.086914,0.100279,174748.0
2024-04-03 08:00:00,0.100279,0.100279,0.087876,0.088261,251937.0
2024-04-03 12:00:00,0.088261,0.099125,0.085,0.091189,209400.0
2024-04-03 16:00:00,0.091189,0.09875,0.085,0.088224,151444.0
2024-04-03 20:00:00,0.088224,0.0999,0.076523,0.096639,320435.0
2024-04-04 00:00:00,0.096639,0.096639,0.088984,0.089123,64534.0
2024-04-04 04:00:00,0.089123,0.092075,0.085996,0.088494,73757.0
2024-04-04 08:00:00,0.088494,0.092843,0.084501,0.087309,91494.0
2024-04-04 12:00:00,0.087309,0.090216,0.082001,0.082259,162482.0
2024-04-04 16:00:00,0.082259,0.090966,0.0718,0.072339,280181.0
2024-04-04 20:00:00,0.072339,0.087,0.070001,0.076164,208691.0
2024-04-05 00:00:00,0.076164,0.080052,0.072001,0.078259,76598.0
2024-04-05 04:00:00,0.078259,0.080831,0.075834,0.078039,64759.0
2024-04-05 08:00:00,0.078039,0.079373,0.072,0.073286,71161.0
2024-04-05 12:00:00,0.073286,0.079999,0.07,0.072599,160124.0
2024-04-05 16:00:00,0.072599,0.073699,0.069875,0.072462,119004.0
2024-04-05 20:00:00,0.072462,0.076999,0.072207,0.072902,91222.0
2024-04-06 00:00:00,0.072902,0.073699,0.072216,0.072881,83016.0
2024-04-06 04:00:00,0.072881,0.072939,0.065,0.069036,168007.0
2024-04-06 08:00:00,0.069036,0.076327,0.061256,0.068693,190834.0
2024-04-06 12:00:00,0.068693,0.071322,0.067126,0.068896,84903.0
2024-04-06 16:00:00,0.06878,0.06878,0.067125,0.067382,71205.0
2024-04-06 20:00:00,0.067382,0.073199,0.065084,0.067722,136172.0
2024-04-07 00:00:00,0.067722,0.077325,0.067722,0.075735,101178.0
2024-04-07 04:00:00,0.075735,0.08325,0.07455,0.08025,88670.0
2024-04-07 08:00:00,0.080249,0.082726,0.076798,0.079491,84200.0
2024-04-07 12:00:00,0.079491,0.081502,0.078,0.078848,84529.0
2024-04-07 16:00:00,0.078848,0.078848,0.0675,0.073501,139304.0
2024-04-07 20:00:00,0.073501,0.07425,0.071625,0.072683,93841.0
2024-04-08 00:00:00,0.072683,0.073492,0.065999,0.071259,139129.0
2024-04-08 04:00:00,0.071259,0.071322,0.064959,0.070159,176055.0
2024-04-08 08:00:00,0.070159,0.072823,0.061219,0.063318,182754.0
2024-04-08 12:00:00,0.063318,0.063318,0.055818,0.061588,496805.0
2024-04-08 16:00:00,0.061588,0.062096,0.05582,0.058749,180179.0
2024-04-08 20:00:00,0.058749,0.059543,0.055,0.055,155995.0
2024-04-09 00:00:00,0.055162,0.061297,0.051148,0.058794,328356.0
2024-04-09 04:00:00,0.058794,0.060098,0.053651,0.053904,137367.0
2024-04-09 08:00:00,0.053904,0.053904,0.046415,0.048361,217357.0
2024-04-09 12:00:00,0.048361,0.053198,0.04723,0.051999,259941.0
2024-04-09 16:00:00,0.051999,0.057976,0.048884,0.057664,133710.0
2024-04-09 20:00:00,0.057664,0.060834,0.055084,0.056171,84723.0
2024-04-10 00:00:00,0.056171,0.062334,0.054477,0.054477,101985.0
2024-04-10 04:00:00,0.054124,0.055426,0.050142,0.052453,88165.0
2024-04-10 08:00:00,0.052453,0.054252,0.051068,0.051767,100115.0
2024-04-10 12:00:00,0.051767,0.052269,0.045759,0.048869,143151.0
2024-04-10 16:00:00,0.048869,0.052582,0.048682,0.05108,168781.0
2024-04-10 20:00:00,0.051079,0.05108,0.045697,0.046446,276808.0
2024-04-11 00:00:00,0.046446,0.047038,0.043016,0.044022,183434.0
2024-04-11 04:00:00,0.044022,0.04481,0.042182,0.043495,347518.0
2024-04-11 08:00:00,0.043495,0.0443,0.038639,0.039478,638159.0
2024-04-11 12:00:00,0.03944,0.040589,0.030998,0.032986,1008739.0
2024-04-11 16:00:00,0.032986,0.044841,0.032986,0.038944,778935.0
2024-04-11 20:00:00,0.038978,0.042509,0.038553,0.041404,478382.0
2024-04-12 00:00:00,0.041404,0.042022,0.040063,0.040746,484093.0
2024-04-12 04:00:00,0.040746,0.041641,0.035609,0.036417,621446.0
2024-04-12 08:00:00,0.036312,0.037843,0.035661,0.036191,407501.0
2024-04-12 12:00:00,0.036191,0.047609,0.036175,0.046219,568077.0
2024-04-12 16:00:00,0.046219,0.048178,0.037501,0.039714,463875.0
2024-04-12 20:00:00,0.038331,0.0422,0.037513,0.041252,300495.0
2024-04-13 00:00:00,0.041252,0.050584,0.041193,0.045242,304495.0
2024-04-13 04:00:00,0.045242,0.049738,0.041339,0.048375,336753.0
2024-04-13 08:00:00,0.048375,0.050781,0.04487,0.050218,278319.0
2024-04-13 12:00:00,0.050218,0.055738,0.047431,0.04779,278291.0
2024-04-13 16:00:00,0.04779,0.05074,0.038338,0.040629,334468.0
2024-04-13 20:00:00,0.040629,0.041278,0.035,0.039701,356614.0
2024-04-14 00:00:00,0.039701,0.042661,0.037159,0.03897,367089.0
2024-04-14 04:00:00,0.03897,0.044332,0.038879,0.040824,297949.0
2024-04-14 08:00:00,0.040824,0.042716,0.039145,0.040865,285724.0
2024-04-14 12:00:00,0.040865,0.041342,0.040067,0.040368,278316.0
2024-04-14 16:00:00,0.040368,0.045756,0.038877,0.045724,280854.0
2024-04-14 20:00:00,0.045724,0.0493,0.043405,0.04716,240019.0
2024-04-15 00:00:00,0.04716,0.051431,0.045829,0.049963,227015.0
2024-04-15 04:00:00,0.049936,0.051459,0.047863,0.049858,239832.0
2024-04-15 08:00:00,0.049858,0.050698,0.039,0.045843,377223.0
2024-04-15 12:00:00,0.045843,0.046043,0.04325,0.045537,324835.0
2024-04-15 16:00:00,0.045537,0.05225,0.0435,0.047006,513298.0
2024-04-15 20:00:00,0.047006,0.049318,0.047003,0.048712,320229.0
2024-04-16 00:00:00,0.048712,0.048881,0.045995,0.046343,279319.0
2024-04-16 04:00:00,0.046343,0.047298,0.04525,0.046751,358245.0
2024-04-16 08:00:00,0.046751,0.048299,0.0445,0.047836,357582.0
2024-04-16 12:00:00,0.047836,0.048033,0.0435,0.043886,313372.0
2024-04-16 16:00:00,0.043886,0.043937,0.039514,0.041034,361493.0
2024-04-16 20:00:00,0.041034,0.044295,0.04102,0.043216,343861.0
2024-04-17 00:00:00,0.043294,0.044544,0.043111,0.043665,302909.0
2024-04-17 04:00:00,0.043665,0.044295,0.04225,0.043057,375079.0
2024-04-17 08:00:00,0.043057,0.043294,0.041591,0.041762,331169.0
2024-04-17 12:00:00,0.041762,0.042293,0.03893,0.039052,356490.0
2024-04-17 16:00:00,0.039052,0.040038,0.037912,0.039268,368840.0
2024-04-17 20:00:00,0.039268,0.039789,0.03835,0.038801,316411.0
2024-04-18 00:00:00,0.038801,0.041037,0.03859,0.040949,347605.0
2024-04-18 04:00:00,0.040949,0.044324,0.0405,0.040787,380615.0
2024-04-18 08:00:00,0.040787,0.042793,0.038992,0.04006,429121.0
2024-04-18 12:00:00,0.04006,0.041439,0.038372,0.038614,372608.0
2024-04-18 16:00:00,0.038614,0.040033,0.037266,0.037832,351704.0
2024-04-18 20:00:00,0.037832,0.03903,0.03775,0.038022,354465.0
2024-04-19 00:00:00,0.038022,0.038289,0.03559,0.035814,401733.0
2024-04-19 04:00:00,0.035814,0.038268,0.03525,0.038027,371631.0
2024-04-19 08:00:00,0.038027,0.038288,0.036724,0.037676,351579.0
2024-04-19 12:00:00,0.037676,0.038435,0.036751,0.03822,389058.0
2024-04-19 16:00:00,0.03822,0.038467,0.03675,0.037397,350643.0
2024-04-19 20:00:00,0.037397,0.037538,0.03625,0.036706,353137.0
2024-04-20 00:00:00,0.036706,0.037028,0.036056,0.036335,349974.0
2024-04-20 04:00:00,0.036335,0.03672,0.035293,0.035367,351741.0
2024-04-20 08:00:00,0.035367,0.035747,0.03485,0.035213,358335.0
2024-04-20 12:00:00,0.035213,0.035536,0.03465,0.035366,352518.0
2024-04-20 16:00:00,0.035366,0.037023,0.035329,0.036832,437724.0
2024-04-20 20:00:00,0.036832,0.037028,0.034997,0.035203,324595.0
2024-04-21 00:00:00,0.035203,0.035286,0.034613,0.034921,311043.0
2024-04-21 04:00:00,0.034921,0.035225,0.034772,0.034773,347195.0
2024-04-21 08:00:00,0.034773,0.034783,0.033263,0.034403,300067.0
2024-04-21 12:00:00,0.034403,0.035232,0.0338,0.035199,377691.0
2024-04-21 16:00:00,0.035199,0.035711,0.034222,0.035481,256340.0
2024-04-21 20:00:00,0.035481,0.035639,0.03388,0.03543,279128.0
2024-04-22 00:00:00,0.03543,0.03625,0.034173,0.035805,238314.0
2024-04-22 04:00:00,0.035805,0.036251,0.035666,0.035862,266652.0
2024-04-22 08:00:00,0.035862,0.037209,0.035785,0.036984,298178.0
2024-04-22 12:00:00,0.036984,0.037632,0.036741,0.036792,241535.0
2024-04-22 16:00:00,0.036792,0.038981,0.036778,0.038752,254098.0
2024-04-22 20:00:00,0.038752,0.040334,0.038535,0.039789,280345.0
2024-04-23 00:00:00,0.039789,0.039809,0.034999,0.038986,500610.0
2024-04-23 04:00:00,0.038986,0.047117,0.038953,0.040336,456790.0
2024-04-23 08:00:00,0.040336,0.040556,0.038996,0.039082,282165.0
2024-04-23 12:00:00,0.039082,0.039221,0.036963,0.038374,356999.0
2024-04-23 16:00:00,0.038374,0.038374,0.03702,0.037035,243393.0
2024-04-23 20:00:00,0.037035,0.037062,0.034998,0.035149,273883.0
2024-04-24 00:00:00,0.035149,0.035292,0.033889,0.035019,302438.0
2024-04-24 04:00:00,0.035019,0.036195,0.034333,0.034811,338358.0
2024-04-24 08:00:00,0.034811,0.03517,0.034418,0.034693,333215.0
2024-04-24 12:00:00,0.034693,0.034811,0.031888,0.031982,339714.0
2024-04-24 16:00:00,0.031982,0.032583,0.031895,0.032191,329611.0
2024-04-24 20:00:00,0.032191,0.032222,0.031,0.031352,387437.0
2024-04-25 00:00:00,0.031352,0.031919,0.030419,0.030455,379392.0
2024-04-25 04:00:00,0.030455,0.031013,0.030111,0.030883,326993.0
2024-04-25 08:00:00,0.030883,0.030945,0.029445,0.029571,278537.0
2024-04-25 12:00:00,0.029571,0.02996,0.028555,0.028589,422800.0
2024-04-25 16:00:00,0.028589,0.028806,0.028333,0.028436,350225.0
2024-04-25 20:00:00,0.028436,0.028485,0.027555,0.027832,527668.0
2024-04-26 00:00:00,0.027832,0.027951,0.023999,0.024767,952327.0
2024-04-26 04:00:00,0.024767,0.025271,0.022444,0.02256,791263.0
2024-04-26 08:00:00,0.02256,0.025089,0.02,0.024616,1400124.0
2024-04-26 12:00:00,0.024616,0.024745,0.022305,0.022521,757343.0
2024-04-26 16:00:00,0.022521,0.027,0.02241,0.024652,679916.0
2024-04-26 20:00:00,0.024652,0.028778,0.024193,0.026773,865239.0
2024-04-27 00:00:00,0.026773,0.027,0.025863,0.026283,618403.0
2024-04-27 04:00:00,0.026283,0.02672,0.024975,0.025422,760843.0
2024-04-27 08:00:00,0.025422,0.025775,0.024691,0.024691,575015.0
2024-04-27 12:00:00,0.024691,0.027667,0.024691,0.026945,574954.0
2024-04-27 16:00:00,0.026945,0.02959,0.026921,0.029192,774049.0
2024-04-27 20:00:00,0.029192,0.031889,0.029192,0.030326,594175.0
2024-04-28 00:00:00,0.030326,0.032421,0.030326,0.031618,523264.0
2024-04-28 04:00:00,0.031618,0.032102,0.031108,0.031241,427018.0
2024-04-28 08:00:00,0.031241,0.031591,0.03066,0.030935,461720.0
2024-04-28 12:00:00,0.030935,0.030999,0.029638,0.029807,649566.0
2024-04-28 16:00:00,0.029807,0.029875,0.029193,0.029525,443492.0
2024-04-28 20:00:00,0.029525,0.029889,0.029031,0.029225,564465.0
2024-04-29 00:00:00,0.029225,0.029271,0.028084,0.02869,565457.0
2024-04-29 04:00:00,0.02869,0.029,0.028531,0.028671,641408.0
2024-04-29 08:00:00,0.028671,0.030377,0.028367,0.02943,671887.0
2024-04-29 12:00:00,0.02943,0.02973,0.026976,0.027779,606004.0
2024-04-29 16:00:00,0.027779,0.028556,0.027648,0.028164,457885.0
2024-04-29 20:00:00,0.028164,0.028334,0.027861,0.028211,537041.0
2024-04-30 00:00:00,0.028211,0.028334,0.027417,0.027487,427770.0
2024-04-30 04:00:00,0.027487,0.027957,0.02738,0.027759,683118.0
2024-04-30 08:00:00,0.027759,0.027889,0.025916,0.026085,625067.0
2024-04-30 12:00:00,0.026111,0.027445,0.024753,0.02535,876827.0
2024-04-30 16:00:00,0.02535,0.026584,0.025197,0.025232,463793.0
2024-04-30 20:00:00,0.025232,0.025765,0.024854,0.025412,683772.0
2024-05-01 00:00:00,0.025412,0.025667,0.025103,0.025417,611511.0
2024-05-01 04:00:00,0.025417,0.026112,0.024135,0.02414,655658.0
2024-05-01 08:00:00,0.02414,0.024174,0.022334,0.022759,802012.0
2024-05-01 12:00:00,0.022759,0.022818,0.022163,0.022654,853996.0
2024-05-01 16:00:00,0.022654,0.023667,0.022611,0.02345,710429.0
2024-05-01 20:00:00,0.02345,0.024104,0.023199,0.023754,488332.0
2024-05-02 00:00:00,0.023754,0.024037,0.023669,0.023881,558532.0
2024-05-02 04:00:00,0.023881,0.02391,0.022382,0.023269,874989.0
2024-05-02 08:00:00,0.023269,0.024258,0.022998,0.024112,564285.0
2024-05-02 12:00:00,0.024258,0.024556,0.024055,0.024075,526320.0
2024-05-02 16:00:00,0.024075,0.024556,0.023722,0.023785,812997.0
2024-05-02 20:00:00,0.023785,0.02397,0.023505,0.023627,717753.0
2024-05-03 00:00:00,0.023627,0.023667,0.02303,0.023421,691176.0
2024-05-03 04:00:00,0.023505,0.024114,0.023205,0.024094,521844.0
2024-05-03 08:00:00,0.024094,0.025889,0.023494,0.025098,696148.0
2024-05-03 12:00:00,0.025098,0.02758,0.024975,0.027268,691342.0
2024-05-03 16:00:00,0.027268,0.0278,0.026085,0.027547,719194.0
2024-05-03 20:00:00,0.027547,0.030469,0.027421,0.030333,656509.0
2024-05-04 00:00:00,0.030333,0.030777,0.02947,0.030292,572268.0
2024-05-04 04:00:00,0.030292,0.03202,0.029265,0.031854,470048.0
2024-05-04 08:00:00,0.031854,0.035065,0.031265,0.033854,548502.0
2024-05-04 12:00:00,0.033854,0.040688,0.033843,0.035834,669647.0
2024-05-04 16:00:00,0.035834,0.038594,0.034419,0.037657,543759.0
2024-05-04 20:00:00,0.037657,0.038816,0.037222,0.038515,234299.0
2024-05-05 00:00:00,0.038515,0.038593,0.034816,0.034873,258553.0
2024-05-05 04:00:00,0.034873,0.039667,0.034777,0.038147,394239.0
2024-05-05 08:00:00,0.038147,0.041207,0.037314,0.041053,266562.0
2024-05-05 12:00:00,0.041053,0.045165,0.041053,0.045075,258981.0
2024-05-05 16:00:00,0.045075,0.045897,0.040999,0.043277,317741.0
2024-05-05 20:00:00,0.043277,0.043277,0.038564,0.038749,224523.0
2024-05-06 00:00:00,0.038749,0.042334,0.038559,0.040447,254363.0
2024-05-06 04:00:00,0.040447,0.041223,0.039855,0.041008,215459.0
2024-05-06 08:00:00,0.041008,0.04246,0.04092,0.041749,244854.0
2024-05-06 12:00:00,0.041749,0.041749,0.035,0.036385,426367.0
2024-05-06 16:00:00,0.036385,0.036615,0.035222,0.035681,234192.0
2024-05-06 20:00:00,0.035681,0.036295,0.034777,0.034981,217828.0
2024-05-07 00:00:00,0.034981,0.035889,0.034614,0.035764,229124.0
2024-05-07 04:00:00,0.035764,0.036148,0.034358,0.03533,281860.0
2024-05-07 08:00:00,0.03533,0.035922,0.030905,0.030905,331957.0
2024-05-07 12:00:00,0.031143,0.034145,0.030805,0.032667,475167.0
2024-05-07 16:00:00,0.032667,0.033922,0.032591,0.033107,287315.0
2024-05-07 20:00:00,0.033107,0.0337,0.032655,0.033212,231022.0
2024-05-08 00:00:00,0.033212,0.033255,0.032113,0.032189,222464.0
2024-05-08 04:00:00,0.032189,0.03268,0.031888,0.03189,215873.0
2024-05-08 08:00:00,0.03189,0.032075,0.031222,0.031304,239325.0
2024-05-08 12:00:00,0.031304,0.031888,0.030778,0.031672,244602.0
2024-05-08 16:00:00,0.031672,0.032137,0.031444,0.03206,241598.0
2024-05-08 20:00:00,0.03206,0.032116,0.031001,0.031044,230217.0
2024-05-09 00:00:00,0.031044,0.031338,0.030764,0.031242,235862.0
2024-05-09 04:00:00,0.031242,0.031515,0.030807,0.031228,245356.0
2024-05-09 08:00:00,0.031228,0.031254,0.030122,0.030124,225572.0
2024-05-09 12:00:00,0.030124,0.030326,0.029524,0.029878,246670.0
2024-05-09 16:00:00,0.029878,0.030581,0.029878,0.029904,311391.0
2024-05-09 20:00:00,0.029904,0.029904,0.027223,0.027518,592893.0
2024-05-10 00:00:00,0.027518,0.028555,0.027445,0.028379,424504.0
2024-05-10 04:00:00,0.028379,0.028584,0.027002,0.0272,620415.0
2024-05-10 08:00:00,0.0272,0.02723,0.025444,0.026556,697855.0
2024-05-10 12:00:00,0.026556,0.026804,0.025638,0.025783,545922.0
2024-05-10 16:00:00,0.025783,0.025815,0.024061,0.024553,823118.0
2024-05-10 20:00:00,0.024553,0.025025,0.024451,0.025002,545698.0
2024-05-11 00:00:00,0.025002,0.025022,0.024558,0.024834,708299.0
2024-05-11 04:00:00,0.024834,0.025252,0.0246,0.025,501307.0
2024-05-11 08:00:00,0.025,0.025248,0.02415,0.024245,736935.0
2024-05-11 12:00:00,0.024245,0.025021,0.024123,0.024424,514078.0
2024-05-11 16:00:00,0.024424,0.024822,0.024153,0.024736,376280.0
2024-05-11 20:00:00,0.024736,0.024903,0.024445,0.024663,728077.0
2024-05-12 00:00:00,0.024663,0.025007,0.02446,0.02457,610118.0
2024-05-12 04:00:00,0.02457,0.024845,0.024213,0.024485,657825.0
2024-05-12 08:00:00,0.024485,0.026802,0.024383,0.026468,649511.0
2024-05-12 12:00:00,0.026468,0.027429,0.026401,0.027178,663008.0
2024-05-12 16:00:00,0.027178,0.02747,0.025666,0.026018,580438.0
2024-05-12 20:00:00,0.026018,0.026582,0.025984,0.02628,526879.0
2024-05-13 00:00:00,0.02628,0.026395,0.025222,0.025652,547603.0
2024-05-13 04:00:00,0.025652,0.02588,0.024635,0.024727,658302.0
2024-05-13 08:00:00,0.024727,0.025065,0.023976,0.024205,3155503.0
2024-05-13 12:00:00,0.024205,0.025222,0.024112,0.024748,8310476.0
2024-05-13 16:00:00,0.024748,0.024794,0.023223,0.024208,6430843.0
2024-05-13 20:00:00,0.024208,0.024358,0.023934,0.024271,2712057.0
2024-05-14 00:00:00,0.024271,0.024562,0.024019,0.024518,1761067.0
2024-05-14 04:00:00,0.024518,0.024579,0.023995,0.024085,1539725.0
2024-05-14 08:00:00,0.024085,0.024135,0.023237,0.0234,2463873.0
2024-05-14 12:00:00,0.0234,0.023466,0.021968,0.021995,2284921.0
2024-05-14 16:00:00,0.021995,0.022314,0.021577,0.021905,9833028.0
2024-05-14 20:00:00,0.021905,0.022097,0.021747,0.022022,10861185.0
2024-05-15 00:00:00,0.022022,0.023077,0.021966,0.022771,7875613.0
2024-05-15 04:00:00,0.022771,0.02525,0.022556,0.023218,11685581.0
2024-05-15 08:00:00,0.023218,0.023246,0.022111,0.022149,11129151.0
2024-05-15 12:00:00,0.022149,0.0245,0.021748,0.023867,7506606.0
2024-05-15 16:00:00,0.023867,0.02458,0.023666,0.024477,3832595.0
2024-05-15 20:00:00,0.024477,0.025205,0.023666,0.023798,2352807.0
2024-05-16 00:00:00,0.023798,0.023912,0.022998,0.023232,2182342.0
2024-05-16 04:00:00,0.023232,0.023895,0.022885,0.023795,1966109.0
2024-05-16 08:00:00,0.023795,0.024358,0.023444,0.023754,2295531.0
2024-05-16 12:00:00,0.023754,0.023797,0.023057,0.02322,681372.0
2024-05-16 16:00:00,0.02322,0.023468,0.022777,0.022901,738612.0
2024-05-16 20:00:00,0.022901,0.022973,0.022551,0.022617,1082922.0
2024-05-17 00:00:00,0.022617,0.022725,0.022111,0.022403,750624.0
2024-05-17 04:00:00,0.022403,0.023468,0.022333,0.023366,773860.0
2024-05-17 08:00:00,0.023366,0.023819,0.023366,0.023674,859720.0
2024-05-17 12:00:00,0.023674,0.024907,0.023666,0.024837,812361.0
2024-05-17 16:00:00,0.024837,0.02578,0.024777,0.025707,838877.0
2024-05-17 20:00:00,0.025707,0.025889,0.025499,0.025597,804679.0
2024-05-18 00:00:00,0.025597,0.027576,0.025597,0.026773,645658.0
2024-05-18 04:00:00,0.026773,0.026777,0.026311,0.026703,675499.0
2024-05-18 08:00:00,0.026703,0.027442,0.02653,0.027126,524213.0
2024-05-18 12:00:00,0.027126,0.028,0.026988,0.02762,1467477.0
2024-05-18 16:00:00,0.02762,0.02762,0.027218,0.027333,1789531.0
2024-05-18 20:00:00,0.027333,0.027679,0.027247,0.02739,1957126.0
2024-05-19 00:00:00,0.02739,0.027554,0.026529,0.026534,1930284.0
2024-05-19 04:00:00,0.026534,0.026535,0.02494,0.025434,1920511.0
2024-05-19 08:00:00,0.025434,0.026097,0.02542,0.025839,2623767.0
2024-05-19 12:00:00,0.025839,0.02606,0.025197,0.025198,2339096.0
2024-05-19 16:00:00,0.025198,0.026334,0.025197,0.026054,2328123.0
2024-05-19 20:00:00,0.026054,0.026334,0.025764,0.026087,1543540.0
2024-05-20 00:00:00,0.026087,0.026112,0.024988,0.02507,2313441.0
2024-05-20 04:00:00,0.02507,0.025195,0.023876,0.024545,2203675.0
2024-05-20 08:00:00,0.024545,0.0247,0.024333,0.02468,2454567.0
2024-05-20 12:00:00,0.02468,0.024999,0.024555,0.02478,1438301.0
2024-05-20 16:00:00,0.02478,0.025567,0.024558,0.025419,1717539.0
2024-05-20 20:00:00,0.025419,0.025444,0.024556,0.024701,2435676.0
2024-05-21 00:00:00,0.024701,0.02473,0.023889,0.024136,1782963.0
2024-05-21 04:00:00,0.024136,0.028324,0.024091,0.028228,1869568.0
2024-05-21 08:00:00,0.028228,0.028545,0.027283,0.027434,2085651.0
2024-05-21 12:00:00,0.027434,0.027667,0.026529,0.026571,1825887.0
2024-05-21 16:00:00,0.026571,0.026571,0.026085,0.026535,2600393.0
2024-05-21 20:00:00,0.026535,0.026535,0.026086,0.026389,42597323.0
2024-05-22 00:00:00,0.026389,0.026555,0.02631,0.02638,5520396.0
2024-05-22 04:00:00,0.02638,0.026573,0.024975,0.025522,6066761.0
2024-05-22 08:00:00,0.025522,0.025522,0.024456,0.024516,5989132.0
2024-05-22 12:00:00,0.024516,0.02458,0.023618,0.023619,5986183.0
2024-05-22 16:00:00,0.023619,0.02385,0.023445,0.023559,32925829.0
2024-05-22 20:00:00,0.023559,0.023781,0.023223,0.023304,23371623.0
2024-05-23 00:00:00,0.023304,0.02362,0.023301,0.023534,14412439.0
2024-05-23 04:00:00,0.023534,0.023656,0.023307,0.023514,14168976.0
2024-05-23 08:00:00,0.023514,0.023688,0.023336,0.023423,12986306.0
2024-05-23 12:00:00,0.023423,0.023423,0.022593,0.022707,6057849.0
2024-05-23 16:00:00,0.022707,0.022763,0.022366,0.022382,3686124.0
2024-05-23 20:00:00,0.022382,0.022402,0.019,0.019165,4620436.0
2024-05-24 00:00:00,0.019165,0.020798,0.019165,0.02065,4045113.0
2024-05-24 04:00:00,0.02065,0.020788,0.019446,0.019907,4032637.0
2024-05-24 08:00:00,0.019907,0.020132,0.019699,0.019986,4034354.0
2024-05-24 12:00:00,0.019986,0.020095,0.019262,0.019746,5156991.0
2024-05-24 16:00:00,0.019746,0.019869,0.019015,0.019811,4304444.0
2024-05-24 20:00:00,0.019811,0.019953,0.019038,0.019284,5510041.0
2024-05-25 00:00:00,0.019284,0.01948,0.019222,0.019272,3568599.0
2024-05-25 04:00:00,0.019272,0.019464,0.01914,0.019232,4059933.0
2024-05-25 08:00:00,0.019232,0.019371,0.019037,0.019241,4882561.0
2024-05-25 12:00:00,0.019241,0.020355,0.019011,0.020349,3910716.0
2024-05-25 16:00:00,0.020349,0.0232,0.020333,0.02275,4448440.0
2024-05-25 20:00:00,0.02275,0.023246,0.022683,0.023134,3102654.0
2024-05-26 00:00:00,0.023134,0.02352,0.022989,0.023267,2520297.0
2024-05-26 04:00:00,0.023267,0.023291,0.02308,0.023104,3732677.0
2024-05-26 08:00:00,0.023104,0.023912,0.02308,0.02328,2329068.0
2024-05-26 12:00:00,0.02328,0.023715,0.023082,0.023108,3187463.0
2024-05-26 16:00:00,0.023108,0.023145,0.022335,0.022572,5374917.0
2024-05-26 20:00:00,0.022571,0.022577,0.02152,0.021619,3142351.0
2024-05-27 00:00:00,0.021619,0.021688,0.020021,0.02017,2505147.0
2024-05-27 04:00:00,0.02017,0.02017,0.019104,0.01969,2093706.0
2024-05-27 08:00:00,0.01969,0.020619,0.019632,0.020412,3428132.0
2024-05-27 12:00:00,0.020412,0.02188,0.02041,0.021523,1828840.0
2024-05-27 16:00:00,0.021523,0.021837,0.020838,0.02086,1925110.0
2024-05-27 20:00:00,0.02086,0.020886,0.020555,0.020858,2159893.0
2024-05-28 00:00:00,0.020858,0.020985,0.020658,0.020906,2361311.0
2024-05-28 04:00:00,0.020906,0.021058,0.020593,0.020732,2019250.0
2024-05-28 08:00:00,0.020732,0.022037,0.020516,0.021632,2395760.0
2024-05-28 12:00:00,0.021522,0.021677,0.020777,0.020976,1075562.0
2024-05-28 16:00:00,0.020976,0.021381,0.020805,0.021347,946392.0
2024-05-28 20:00:00,0.02132,0.021466,0.021247,0.021298,1459304.0
2024-05-29 00:00:00,0.021298,0.021456,0.021135,0.021168,1270140.0
2024-05-29 04:00:00,0.021168,0.021643,0.020865,0.020944,854345.0
2024-05-29 08:00:00,0.020944,0.021002,0.020745,0.020788,1149221.0
2024-05-29 12:00:00,0.020788,0.020794,0.019686,0.019888,1219578.0
2024-05-29 16:00:00,0.019888,0.021244,0.019667,0.019722,1332656.0
2024-05-29 20:00:00,0.019722,0.019891,0.019666,0.019876,1586713.0
2024-05-30 00:00:00,0.019876,0.01988,0.019605,0.019629,993151.0
2024-05-30 04:00:00,0.019629,0.019908,0.019446,0.019474,1445565.0
2024-05-30 08:00:00,0.019474,0.019577,0.019444,0.019485,1235244.0
2024-05-30 12:00:00,0.019485,0.019521,0.018779,0.018797,1243289.0
2024-05-30 16:00:00,0.018797,0.018957,0.018178,0.018333,668844.0
2024-05-30 20:00:00,0.018333,0.018352,0.018135,0.018245,518640.0
2024-05-31 00:00:00,0.018245,0.018352,0.018134,0.018146,437600.0
2024-05-31 04:00:00,0.018146,0.018572,0.015908,0.016335,875470.0
2024-05-31 08:00:00,0.016335,0.01724,0.016146,0.017218,693187.0
2024-05-31 12:00:00,0.017218,0.01737,0.016777,0.016879,520510.0
2024-05-31 16:00:00,0.016879,0.016934,0.015888,0.016079,592773.0
2024-05-31 20:00:00,0.01604,0.016229,0.015222,0.016044,820231.0
2024-06-01 00:00:00,0.016044,0.016128,0.015957,0.016097,536048.0
2024-06-01 04:00:00,0.016097,0.016262,0.015992,0.016156,676653.0
2024-06-01 08:00:00,0.016156,0.01646,0.016112,0.016394,595642.0
2024-06-01 12:00:00,0.016394,0.016502,0.016335,0.01644,534826.0
2024-06-01 16:00:00,0.01644,0.01652,0.01634,0.016449,464247.0
2024-06-01 20:00:00,0.016449,0.016929,0.016341,0.016649,517241.0
2024-06-02 00:00:00,0.016649,0.01687,0.016603,0.016746,580193.0
2024-06-02 04:00:00,0.016746,0.01687,0.016586,0.016703,545085.0
2024-06-02 08:00:00,0.016703,0.016835,0.016439,0.016675,451845.0
2024-06-02 12:00:00,0.016505,0.016669,0.016148,0.016424,524283.0
2024-06-02 16:00:00,0.016424,0.016499,0.01574,0.01574,612161.0
2024-06-02 20:00:00,0.01574,0.016198,0.015667,0.015837,581714.0
2024-06-03 00:00:00,0.015837,0.016523,0.015666,0.016236,668885.0
2024-06-03 04:00:00,0.016236,0.016525,0.016215,0.016398,482874.0
2024-06-03 08:00:00,0.016398,0.016671,0.016341,0.01647,532577.0
2024-06-03 12:00:00,0.01647,0.016538,0.016272,0.016296,528341.0
2024-06-03 16:00:00,0.016297,0.016571,0.01629,0.016509,599750.0
2024-06-03 20:00:00,0.016509,0.016718,0.016396,0.016628,678152.0
2024-06-04 00:00:00,0.016628,0.016831,0.016498,0.016577,542693.0
2024-06-04 04:00:00,0.016577,0.016938,0.016499,0.016908,508884.0
2024-06-04 08:00:00,0.016908,0.017346,0.016659,0.016973,899447.0
2024-06-04 12:00:00,0.016973,0.017092,0.016393,0.01643,763166.0
2024-06-04 16:00:00,0.01643,0.016683,0.016392,0.016434,550160.0
2024-06-04 20:00:00,0.016434,0.016643,0.015777,0.015869,629855.0
2024-06-05 00:00:00,0.015869,0.016075,0.015707,0.016038,603221.0
2024-06-05 04:00:00,0.016038,0.016239,0.015779,0.015908,633083.0
2024-06-05 08:00:00,0.015908,0.016013,0.015625,0.015795,595559.0
2024-06-05 12:00:00,0.015795,0.015889,0.014156,0.014464,946559.0
2024-06-05 16:00:00,0.014464,0.014805,0.013964,0.014254,966168.0
2024-06-05 20:00:00,0.014255,0.01464,0.01425,0.014315,585528.0
2024-06-06 00:00:00,0.014315,0.01432,0.014002,0.014007,691181.0
2024-06-06 04:00:00,0.014007,0.014611,0.013969,0.014304,702380.0
2024-06-06 08:00:00,0.014304,0.014466,0.014106,0.014431,619689.0
2024-06-06 12:00:00,0.014431,0.014467,0.014074,0.01433,665450.0
2024-06-06 16:00:00,0.01433,0.014339,0.013876,0.013891,588566.0
2024-06-06 20:00:00,0.013891,0.014185,0.013626,0.014124,830315.0
2024-06-07 00:00:00,0.014124,0.014174,0.0135,0.01356,580887.0
2024-06-07 04:00:00,0.01356,0.013655,0.013251,0.013298,574973.0
2024-06-07 08:00:00,0.013298,0.013337,0.012626,0.012678,772611.0
2024-06-07 12:00:00,0.012678,0.012678,0.012185,0.012412,847309.0
2024-06-07 16:00:00,0.012412,0.012462,0.012125,0.01213,775853.0
2024-06-07 20:00:00,0.01213,0.012309,0.012128,0.012288,831062.0
2024-06-08 00:00:00,0.012288,0.012894,0.012133,0.01253,743990.0
2024-06-08 04:00:00,0.01253,0.013497,0.012397,0.013284,911497.0
2024-06-08 08:00:00,0.013284,0.01358,0.013053,0.013284,694959.0
2024-06-08 12:00:00,0.013284,0.013397,0.01283,0.013218,1004093.0
2024-06-08 16:00:00,0.013218,0.013924,0.013151,0.013866,548335.0
2024-06-08 20:00:00,0.013866,0.014012,0.012375,0.012639,1251573.0
2024-06-09 00:00:00,0.012639,0.012758,0.012337,0.012514,752196.0
2024-06-09 04:00:00,0.012514,0.012587,0.012157,0.012238,793276.0
2024-06-09 08:00:00,0.012238,0.012238,0.011747,0.011873,818765.0
2024-06-09 12:00:00,0.011873,0.012109,0.011752,0.011855,820386.0
2024-06-09 16:00:00,0.011855,0.012093,0.011751,0.01196,871386.0
2024-06-09 20:00:00,0.01196,0.012355,0.011937,0.01201,836477.0
2024-06-10 00:00:00,0.01201,0.012907,0.011958,0.012768,817532.0
2024-06-10 04:00:00,0.012768,0.01288,0.012134,0.012168,796820.0
2024-06-10 08:00:00,0.012168,0.012322,0.012116,0.012144,739442.0
2024-06-10 12:00:00,0.012144,0.012647,0.012142,0.012359,743204.0
2024-06-10 16:00:00,0.012359,0.013623,0.012359,0.013312,853031.0
2024-06-10 20:00:00,0.013312,0.013471,0.012776,0.0128,1007387.0
2024-06-11 00:00:00,0.0128,0.012847,0.012546,0.01265,747851.0
2024-06-11 04:00:00,0.01265,0.012724,0.01225,0.012325,765947.0
2024-06-11 08:00:00,0.012325,0.013625,0.012276,0.013425,827890.0
2024-06-11 12:00:00,0.013425,0.014155,0.013361,0.013873,774276.0
2024-06-11 16:00:00,0.013873,0.014,0.013572,0.01387,650717.0
2024-06-11 20:00:00,0.01387,0.014224,0.013796,0.014123,867054.0
2024-06-12 00:00:00,0.014123,0.01534,0.014121,0.015331,819068.0
2024-06-12 04:00:00,0.015331,0.016985,0.015317,0.015999,1189332.0
2024-06-12 08:00:00,0.015999,0.017478,0.015987,0.017358,898608.0
2024-06-12 12:00:00,0.017358,0.019442,0.017336,0.019375,689169.0
2024-06-12 16:00:00,0.019374,0.019374,0.016984,0.017437,608267.0
2024-06-12 20:00:00,0.017437,0.017625,0.016983,0.017566,557191.0
2024-06-13 00:00:00,0.017566,0.017624,0.016245,0.016521,693661.0
2024-06-13 04:00:00,0.016521,0.016717,0.015984,0.016192,650047.0
2024-06-13 08:00:00,0.016192,0.016338,0.015083,0.015492,592192.0
2024-06-13 12:00:00,0.015492,0.0155,0.014629,0.014729,577975.0
2024-06-13 16:00:00,0.014729,0.014749,0.013987,0.014032,692901.0
2024-06-13 20:00:00,0.014032,0.014187,0.013236,0.013256,865484.0
2024-06-14 00:00:00,0.013255,0.013582,0.013114,0.013549,627063.0
2024-06-14 04:00:00,0.013549,0.014157,0.013508,0.013803,801813.0
2024-06-14 08:00:00,0.013803,0.014124,0.013736,0.013885,2096662.0
2024-06-14 12:00:00,0.013885,0.015471,0.013862,0.014603,13305018.0
2024-06-14 16:00:00,0.014603,0.014874,0.01436,0.014806,29188189.0
2024-06-14 20:00:00,0.014806,0.015661,0.014695,0.015451,12342082.0
2024-06-15 00:00:00,0.015451,0.015795,0.015153,0.015603,14761276.0
2024-06-15 04:00:00,0.015603,0.016333,0.015245,0.016024,15313823.0
2024-06-15 08:00:00,0.016024,0.016397,0.015609,0.016034,10481597.0
2024-06-15 12:00:00,0.016034,0.016249,0.015735,0.015793,1205004.0
2024-06-15 16:00:00,0.015793,0.016007,0.015654,0.015881,1321522.0
2024-06-15 20:00:00,0.015882,0.0165,0.015859,0.016402,1017330.0
2024-06-16 00:00:00,0.016402,0.017829,0.016372,0.017361,1374976.0
2024-06-16 04:00:00,0.017361,0.01775,0.017232,0.017278,1018345.0
2024-06-16 08:00:00,0.017278,0.017748,0.017233,0.017612,1221530.0
2024-06-16 12:00:00,0.017612,0.017739,0.016376,0.01639,1149437.0
2024-06-16 16:00:00,0.01639,0.016415,0.015084,0.015224,964296.0
2024-06-16 20:00:00,0.015224,0.015875,0.014985,0.01574,1213187.0
2024-06-17 00:00:00,0.01574,0.017675,0.015379,0.017615,1475148.0
2024-06-17 04:00:00,0.017615,0.017623,0.016737,0.016823,1073937.0
2024-06-17 08:00:00,0.016823,0.016875,0.016108,0.016191,1334004.0
2024-06-17 12:00:00,0.016191,0.016447,0.015985,0.016217,1056293.0
2024-06-17 16:00:00,0.016217,0.016356,0.01586,0.015913,1083490.0
2024-06-17 20:00:00,0.015913,0.016118,0.015624,0.015682,961217.0
2024-06-18 00:00:00,0.015682,0.015872,0.01501,0.015248,1575898.0
2024-06-18 04:00:00,0.015248,0.015749,0.014693,0.014716,1198668.0
2024-06-18 08:00:00,0.014716,0.01475,0.014111,0.014269,1397069.0
2024-06-18 12:00:00,0.014269,0.0145,0.014176,0.014368,1020610.0
2024-06-18 16:00:00,0.014368,0.014375,0.01411,0.014135,1267004.0
2024-06-18 20:00:00,0.014135,0.014372,0.013987,0.014116,1412483.0
2024-06-19 00:00:00,0.014116,0.014171,0.013617,0.013928,1305830.0
2024-06-19 04:00:00,0.013928,0.014124,0.013737,0.013954,1285202.0
2024-06-19 08:00:00,0.013954,0.014122,0.013616,0.014044,1828437.0
2024-06-19 12:00:00,0.014044,0.014249,0.013792,0.014164,1078786.0
2024-06-19 16:00:00,0.014164,0.014182,0.013237,0.013281,1437667.0
2024-06-19 20:00:00,0.013281,0.013648,0.013164,0.013191,1472440.0
2024-06-20 00:00:00,0.013191,0.013246,0.012875,0.012999,941717.0
2024-06-20 04:00:00,0.012999,0.013125,0.012866,0.012926,1334894.0
2024-06-20 08:00:00,0.012926,0.012998,0.012863,0.012964,1398101.0
2024-06-20 12:00:00,0.012964,0.012999,0.012719,0.012776,978411.0
2024-06-20 16:00:00,0.012776,0.012845,0.0099,0.012118,2272648.0
2024-06-20 20:00:00,0.012118,0.012262,0.011901,0.011985,1058264.0
2024-06-21 00:00:00,0.011985,0.01213,0.011924,0.011973,1058130.0
2024-06-21 04:00:00,0.011973,0.012114,0.011637,0.01177,1109281.0
2024-06-21 08:00:00,0.01177,0.012,0.011515,0.011884,1136511.0
2024-06-21 12:00:00,0.011884,0.012119,0.011877,0.01189,1058071.0
2024-06-21 16:00:00,0.01189,0.012091,0.011751,0.012091,286357.0
2024-06-21 20:00:00,0.012091,0.012289,0.011964,0.012223,70104.0
2024-06-22 00:00:00,0.012195,0.01227,0.012125,0.012258,82330.0
2024-06-22 04:00:00,0.012216,0.012263,0.011989,0.012037,57026.0
2024-06-22 08:00:00,0.012037,0.012388,0.01202,0.012046,128746.0
2024-06-22 12:00:00,0.012046,0.012068,0.011886,0.011893,51785.0
2024-06-22 16:00:00,0.011893,0.012,0.011875,0.011961,263887.0
2024-06-22 20:00:00,0.011961,0.012257,0.011876,0.011972,1635789.0
2024-06-23 00:00:00,0.011972,0.012453,0.011972,0.01231,1580267.0
2024-06-23 04:00:00,0.01231,0.012388,0.012145,0.012199,1327109.0
2024-06-23 08:00:00,0.012199,0.012394,0.012126,0.012261,1101806.0
2024-06-23 12:00:00,0.012261,0.012424,0.012211,0.012315,1291345.0
2024-06-23 16:00:00,0.012315,0.012387,0.012206,0.012365,1211662.0
2024-06-23 20:00:00,0.012365,0.013112,0.012278,0.012994,1739337.0
2024-06-24 00:00:00,0.012994,0.013168,0.012865,0.012981,918043.0
2024-06-24 04:00:00,0.012981,0.013125,0.012737,0.012824,1248636.0
2024-06-24 08:00:00,0.012824,0.013496,0.012749,0.012974,1661220.0
2024-06-24 12:00:00,0.012974,0.013495,0.012863,0.013495,649283.0
2024-06-24 16:00:00,0.013495,0.013501,0.013241,0.013285,732312.0
2024-06-24 20:00:00,0.013285,0.013306,0.012289,0.012312,757124.0
2024-06-25 00:00:00,0.012312,0.012537,0.012301,0.012318,899742.0
2024-06-25 04:00:00,0.012318,0.01425,0.012284,0.013854,1044417.0
2024-06-25 08:00:00,0.013854,0.014,0.013487,0.013857,777649.0
2024-06-25 12:00:00,0.013857,0.013962,0.013486,0.013628,747526.0
2024-06-25 16:00:00,0.013628,0.013689,0.013237,0.013241,630519.0
2024-06-25 20:00:00,0.013241,0.013268,0.012987,0.01301,817256.0
2024-06-26 00:00:00,0.01301,0.013222,0.012855,0.013123,622096.0
2024-06-26 04:00:00,0.013123,0.0135,0.013112,0.013391,805287.0
2024-06-26 08:00:00,0.013391,0.013488,0.013123,0.013188,732637.0
2024-06-26 12:00:00,0.013202,0.013202,0.012871,0.012884,604382.0
2024-06-26 16:00:00,0.012884,0.013,0.01271,0.012874,1028405.0
2024-06-26 20:00:00,0.012874,0.013095,0.012758,0.012993,829630.0
2024-06-27 00:00:00,0.012993,0.013108,0.012788,0.012898,818757.0
2024-06-27 04:00:00,0.012898,0.013122,0.012851,0.012984,843553.0
2024-06-27 08:00:00,0.012984,0.013124,0.012763,0.013057,943446.0
2024-06-27 12:00:00,0.013057,0.013057,0.012316,0.012475,559085.0
2024-06-27 16:00:00,0.012475,0.012496,0.011916,0.01207,635662.0
2024-06-27 20:00:00,0.01207,0.012127,0.011881,0.011988,946876.0
2024-06-28 00:00:00,0.011988,0.011999,0.011774,0.011778,878237.0
2024-06-28 04:00:00,0.011778,0.012138,0.011751,0.011919,1045546.0
2024-06-28 08:00:00,0.011919,0.012136,0.011897,0.012136,861070.0
2024-06-28 12:00:00,0.012085,0.012394,0.01208,0.012356,820491.0
2024-06-28 16:00:00,0.012356,0.012474,0.012163,0.012309,838462.0
2024-06-28 20:00:00,0.012309,0.012376,0.011993,0.012128,822369.0
2024-06-29 00:00:00,0.012128,0.012242,0.009686,0.010606,1252068.0
2024-06-29 04:00:00,0.010606,0.01116,0.010606,0.010974,1241298.0
2024-06-29 08:00:00,0.010974,0.011137,0.010966,0.011052,674611.0
2024-06-29 12:00:00,0.011052,0.011072,0.010504,0.010792,1180260.0
2024-06-29 16:00:00,0.010792,0.010948,0.010669,0.010789,878330.0
2024-06-29 20:00:00,0.010789,0.010871,0.010787,0.010793,481154.0
2024-06-30 00:00:00,0.010793,0.010886,0.010627,0.010739,1021811.0
2024-06-30 04:00:00,0.010739,0.011003,0.010698,0.010845,950878.0
2024-06-30 08:00:00,0.010843,0.011192,0.010776,0.010984,1050645.0
2024-06-30 12:00:00,0.010924,0.010991,0.010751,0.010823,534381.0
2024-06-30 16:00:00,0.010815,0.011002,0.010625,0.010777,1013211.0
2024-06-30 20:00:00,0.010777,0.011261,0.010626,0.01063,958363.0
2024-07-01 00:00:00,0.01063,0.010883,0.010534,0.010754,803429.0
2024-07-01 04:00:00,0.010754,0.010878,0.010626,0.010651,967561.0
2024-07-01 08:00:00,0.010651,0.010746,0.010626,0.010633,605134.0
